Time,Vertical Speed,Horizontal Speed,Distance,Altitude,Angle,Weight,Acceleration Rate,Fuel
0,24.800,932.000,181000.000,13748.000,58.300,286.000,0.000,121.000
10,24.739,919.963,171739.826,13496.496,58.300,284.418,1.597,119.418
20,23.826,906.340,162615.059,13254.194,58.300,282.817,1.606,117.817
30,22.996,892.641,153626.940,13020.563,58.300,281.217,1.615,116.217
40,22.249,878.863,144776.248,12794.777,58.300,279.616,1.624,114.616
50,21.585,865.006,136063.769,12576.005,58.300,278.016,1.634,113.016
60,21.004,851.069,127490.299,12363.418,58.300,276.415,1.643,111.415
70,20.506,837.051,119056.642,12156.183,58.300,274.814,1.653,109.814
80,20.092,822.951,110763.614,11953.466,58.300,273.214,1.663,108.214
90,19.838,808.893,102611.706,11754.226,58.300,271.632,1.624,106.632
100,20.012,795.312,94597.898,11555.260,58.300,270.114,1.563,105.114
110,20.469,781.984,86718.023,11352.696,58.300,268.627,1.571,103.627
120,21.008,768.581,78971.838,11145.112,58.300,267.140,1.580,102.140
130,21.629,755.104,71360.089,10931.688,58.300,265.652,1.589,100.652
140,22.332,741.551,63883.527,10711.602,58.300,264.165,1.598,99.165
150,23.117,727.922,56542.915,10484.032,58.300,262.677,1.607,97.677
160,23.985,714.215,49339.021,10248.154,58.300,261.190,1.616,96.190
170,24.936,700.430,42272.625,10003.139,58.300,259.703,1.625,94.703
180,25.832,686.342,35345.260,9748.619,58.300,258.185,1.701,93.185
190,26.431,671.550,28562.607,9486.755,58.300,256.601,1.785,91.601
200,26.729,656.037,21931.827,9220.558,58.300,254.951,1.871,89.951
210,26.723,639.789,15460.211,8953.050,58.300,253.233,1.958,88.233
220,26.413,622.791,9155.189,8687.270,58.300,251.450,2.047,86.450
230,25.796,605.028,3024.339,8426.276,58.300,249.599,2.138,84.599
240,24.870,586.485,-2924.606,8173.150,58.300,247.683,2.223,82.683
250,23.853,567.504,-8685.181,7930.117,58.300,245.743,2.241,80.743
260,22.924,548.372,-14255.118,7696.771,58.300,243.802,2.258,78.802
270,22.084,529.088,-19632.901,7472.221,58.300,241.862,2.277,76.862
280,21.333,509.648,-24816.987,7255.581,58.300,239.922,2.295,74.922
290,20.671,490.050,-29805.810,7045.963,58.300,237.982,2.314,72.982
300,20.097,470.292,-34597.778,6842.481,58.300,236.041,2.333,71.041
310,19.731,450.564,-39191.849,6643.893,58.300,234.125,2.287,69.125
320,19.865,431.344,-43591.337,6446.275,58.300,232.275,2.224,67.275
330,20.425,412.522,-47801.219,6244.719,58.300,230.472,2.217,65.472
340,21.100,393.594,-51822.456,6036.832,58.300,228.672,2.234,63.672
350,21.864,374.516,-55653.591,5821.705,58.300,226.871,2.252,61.871
360,22.716,355.287,-59293.116,5598.452,58.300,225.071,2.270,60.071
370,23.658,335.903,-62739.497,5366.184,58.300,223.271,2.288,58.271
380,24.688,316.362,-65991.178,5124.014,58.300,221.470,2.307,56.470
390,25.712,296.508,-69046.165,4871.306,58.300,219.651,2.386,54.651
400,26.399,275.795,-71898.075,4610.106,58.300,217.767,2.494,52.767
410,26.716,254.158,-74537.793,4344.064,58.300,215.817,2.604,50.817
420,26.659,231.574,-76955.951,4076.902,58.300,213.800,2.717,48.800
430,26.221,208.017,-79142.937,3812.403,58.300,211.717,2.833,46.717
440,25.395,183.460,-81088.878,3554.415,58.300,209.567,2.952,44.567
450,24.244,157.993,-82783.899,3306.695,58.300,207.364,3.020,42.364
460,23.122,132.175,-84222.055,3070.490,58.300,205.157,3.052,40.157
470,22.075,106.078,-85400.506,2845.092,58.300,202.951,3.086,37.951
480,21.102,79.697,-86316.427,2629.754,58.300,200.744,3.119,35.744
490,20.202,53.023,-86966.933,2423.741,58.300,198.537,3.154,33.537
500,19.480,26.224,-87349.531,2226.049,58.300,196.349,3.122,31.349
510,19.307,-0.097,-87466.561,2032.681,58.300,194.226,3.059,29.226
520,22.327,0.000,-87466.366,1826.150,34.300,192.921,1.633,27.921
530,23.135,0.000,-87466.366,1596.217,4.300,191.811,1.642,26.811
540,22.890,0.000,-87466.366,1366.136,0.000,190.701,1.652,25.701
550,22.548,0.000,-87466.366,1139.035,0.000,189.591,1.661,24.591
560,22.110,0.000,-87466.366,915.882,0.000,188.481,1.671,23.481
570,21.573,0.000,-87466.366,697.656,0.000,187.371,1.681,22.371
580,20.936,0.000,-87466.366,485.346,0.000,186.261,1.691,21.261
590,20.199,0.000,-87466.366,279.954,0.000,185.151,1.701,20.151
600,17.647,0.000,-87466.366,84.208,0.000,183.819,3.427,18.819
601,15.842,0.000,-87466.366,68.366,0.000,183.597,3.431,18.597
602,14.033,0.000,-87466.366,54.333,0.000,183.375,3.436,18.375
603,12.219,0.000,-87466.366,42.114,0.000,183.153,3.440,18.153
604,10.401,0.000,-87466.366,31.713,0.000,182.931,3.444,17.931
605,8.579,0.000,-87466.366,23.134,0.000,182.709,3.448,17.709
606,6.753,0.000,-87466.366,16.381,0.000,182.487,3.452,17.487
607,4.923,0.000,-87466.366,11.458,0.000,182.265,3.457,17.265
608,3.088,0.000,-87466.366,8.369,0.000,182.110,2.422,17.110
609,2.289,0.000,-87466.366,6.081,0.000,181.954,2.424,16.954
610,1.487,0.000,-87466.366,4.594,0.000,181.799,2.426,16.799
611,0.683,0.000,-87466.366,3.910,0.000,181.710,1.387,16.710
612,0.918,0.000,-87466.366,2.992,0.000,181.621,1.388,16.621
613,1.153,0.000,-87466.366,1.839,0.000,181.533,1.388,16.533
614,1.387,0.000,-87466.366,0.452,0.000,181.444,1.389,16.444
615,1.620,0.000,-87466.366,-1.168,0.000,181.355,1.390,16.355
